# Frequency[Hz] Amplitude
0.000000000000000000e+00 1.618000000000058280e-02
5.000000000000000278e-02 3.226445958268824715e-02
1.000000000000000056e-01 3.198332254886376846e-02
1.500000000000000222e-01 3.153196106239164465e-02
2.000000000000000111e-01 3.093284079315844828e-02
2.500000000000000000e-01 3.021205967254854408e-02
3.000000000000000444e-01 2.939625168312579723e-02
3.500000000000000333e-01 2.851042757100368669e-02
4.000000000000000222e-01 2.757681427360512971e-02
4.500000000000000111e-01 2.661445402805796834e-02
5.000000000000000000e-01 2.563925653776470345e-02
5.500000000000000444e-01 2.466426253007434483e-02
6.000000000000000888e-01 2.369997388780679601e-02
6.500000000000000222e-01 2.275468206870646590e-02
7.000000000000000666e-01 2.183477121344301261e-02
7.500000000000000000e-01 2.094499240828338882e-02
8.000000000000000444e-01 2.008871171298601960e-02
8.500000000000000888e-01 1.926813477369885425e-02
9.000000000000000222e-01 1.848450950886145264e-02
9.500000000000000666e-01 1.773830729937403081e-02
1.000000000000000000e+00 1.702938275677798666e-02
1.050000000000000044e+00 1.635711233800387840e-02
1.100000000000000089e+00 1.572051254252844477e-02
1.150000000000000133e+00 1.511833893622666590e-02
1.200000000000000178e+00 1.454916765835708586e-02
1.250000000000000000e+00 1.401146132821062297e-02
1.300000000000000044e+00 1.350362137391410318e-02
1.350000000000000089e+00 1.302402878354831997e-02
1.400000000000000133e+00 1.257107516372989175e-02
1.450000000000000178e+00 1.214318581789445954e-02
1.500000000000000000e+00 1.173883635463294529e-02
1.550000000000000044e+00 1.135656412714420097e-02
1.600000000000000089e+00 1.099497560278741952e-02
1.650000000000000133e+00 1.065275057571337704e-02
1.700000000000000178e+00 1.032864397016879272e-02
1.750000000000000000e+00 1.002148583882809391e-02
1.800000000000000044e+00 9.730180038980566770e-03
1.850000000000000089e+00 9.453701968006216969e-03
1.900000000000000133e+00 9.191095656141838599e-03
1.950000000000000178e+00 8.941470446695959709e-03
2.000000000000000000e+00 8.703997439273854914e-03
2.050000000000000266e+00 8.477905828045133318e-03
2.100000000000000089e+00 8.262479232684321120e-03
2.149999999999999911e+00 8.057052092654462538e-03
2.200000000000000178e+00 7.861006174554653961e-03
2.250000000000000000e+00 7.673767226118652189e-03
2.300000000000000266e+00 7.494801798147844411e-03
2.350000000000000089e+00 7.323614246382491658e-03
2.400000000000000355e+00 7.159743918409603239e-03
2.450000000000000178e+00 7.002762525650923879e-03
2.500000000000000000e+00 6.852271696852880144e-03
2.550000000000000266e+00 6.707900706981252334e-03
2.600000000000000089e+00 6.569304373745247193e-03
2.650000000000000355e+00 6.436161112933522915e-03
2.700000000000000178e+00 6.308171143178383650e-03
2.750000000000000000e+00 6.185054830549190780e-03
2.800000000000000266e+00 6.066551163415499770e-03
2.850000000000000089e+00 5.952416348240901697e-03
2.900000000000000355e+00 5.842422517312906814e-03
2.950000000000000178e+00 5.736356539840035268e-03
3.000000000000000000e+00 5.634018928322066973e-03
3.050000000000000266e+00 5.535222832599323052e-03
3.100000000000000089e+00 5.439793114494305588e-03
3.150000000000000355e+00 5.347565496461415685e-03
3.200000000000000178e+00 5.258385778148975780e-03
3.250000000000000000e+00 5.172109115246279788e-03
3.300000000000000266e+00 5.088599355433178623e-03
3.350000000000000089e+00 5.007728426668536792e-03
3.400000000000000355e+00 4.929375773445564268e-03
3.450000000000000178e+00 4.853427837006644985e-03
3.500000000000000000e+00 4.779777575848064355e-03
3.550000000000000266e+00 4.708324023157016945e-03
3.600000000000000089e+00 4.638971878110405983e-03
3.650000000000000355e+00 4.571631128228995609e-03
3.700000000000000178e+00 4.506216700222247760e-03
3.750000000000000000e+00 4.442648136980806468e-03
3.800000000000000266e+00 4.380849298576055401e-03
3.850000000000000089e+00 4.320748085311203537e-03
3.900000000000000355e+00 4.262276181037138144e-03
3.950000000000000178e+00 4.205368815100374476e-03
4.000000000000000000e+00 4.149964541430686653e-03
4.049999999999999822e+00 4.096005033404112594e-03
4.100000000000000533e+00 4.043434893233497848e-03
4.150000000000000355e+00 3.992201474744998431e-03
4.200000000000000178e+00 3.942254718495772497e-03
4.250000000000000000e+00 3.893546998276172996e-03
4.299999999999999822e+00 3.846032978120186505e-03
4.350000000000000533e+00 3.799669479020980310e-03
4.400000000000000355e+00 3.754415354615259996e-03
4.450000000000000178e+00 3.710231375160892402e-03
4.500000000000000000e+00 3.667080119187812477e-03
4.549999999999999822e+00 3.624925872252879929e-03
4.600000000000000533e+00 3.583734532275515642e-03
4.650000000000000355e+00 3.543473520973204789e-03
4.700000000000000178e+00 3.504111700954492658e-03
4.750000000000000000e+00 3.465619298062315359e-03
4.800000000000000711e+00 3.427967828592747446e-03
4.850000000000000533e+00 3.391130031043715787e-03
4.900000000000000355e+00 3.355079802075158421e-03
4.950000000000000178e+00 3.319792136386883787e-03
5.000000000000000000e+00 3.285243070242918010e-03
5.050000000000000711e+00 3.251409628391955034e-03
5.100000000000000533e+00 3.218269774152448474e-03
5.150000000000000355e+00 3.185802362448462901e-03
5.200000000000000178e+00 3.153987095598269775e-03
5.250000000000000000e+00 3.122804481672537217e-03
5.300000000000000711e+00 3.092235795252398691e-03
5.350000000000000533e+00 3.062263040430157450e-03
5.400000000000000355e+00 3.032868915906824104e-03
5.450000000000000178e+00 3.004036782051238298e-03
5.500000000000000000e+00 2.975750629795190488e-03
5.550000000000000711e+00 2.947995051247966503e-03
5.600000000000000533e+00 2.920755211921909414e-03
5.650000000000000355e+00 2.894016824468289336e-03
5.700000000000000178e+00 2.867766123829712868e-03
5.750000000000000000e+00 2.841989843721870208e-03
5.800000000000000711e+00 2.816675194363338613e-03
5.850000000000000533e+00 2.791809841377787451e-03
5.900000000000000355e+00 2.767381885797971612e-03
5.950000000000000178e+00 2.743379845105733007e-03
6.000000000000000000e+00 2.719792635246558003e-03
6.050000000000000711e+00 2.696609553561355593e-03
6.100000000000000533e+00 2.673820262581880214e-03
6.150000000000000355e+00 2.651414774639739014e-03
6.200000000000000178e+00 2.629383437242149499e-03
6.250000000000000000e+00 2.607716919170667037e-03
6.300000000000000711e+00 2.586406197261880736e-03
6.350000000000000533e+00 2.565442543831695631e-03
6.400000000000000355e+00 2.544817514707232130e-03
6.450000000000000178e+00 2.524522937832647008e-03
6.500000000000000000e+00 2.504550902417251087e-03
6.550000000000000711e+00 2.484893748596293198e-03
6.600000000000000533e+00 2.465544057576557740e-03
6.650000000000000355e+00 2.446494642240662140e-03
6.700000000000000178e+00 2.427738538185475817e-03
6.750000000000000000e+00 2.409268995171632601e-03
6.800000000000000711e+00 2.391079468962397508e-03
6.850000000000000533e+00 2.373163613531514404e-03
6.900000000000000355e+00 2.355515273620813806e-03
6.950000000000000178e+00 2.338128477629524121e-03
7.000000000000000000e+00 2.320997430818236978e-03
7.050000000000000711e+00 2.304116508811508268e-03
7.100000000000000533e+00 2.287480251383966316e-03
7.150000000000000355e+00 2.271083356515667812e-03
7.200000000000000178e+00 2.254920674703256474e-03
7.250000000000000000e+00 2.238987203514242793e-03
7.300000000000000711e+00 2.223278082372399239e-03
7.350000000000000533e+00 2.207788587562983969e-03
7.400000000000000355e+00 2.192514127447085879e-03
7.450000000000000178e+00 2.177450237874990584e-03
7.500000000000000000e+00 2.162592577789020261e-03
7.550000000000000711e+00 2.147936925006804689e-03
7.600000000000000533e+00 2.133479172176439530e-03
7.650000000000000355e+00 2.119215322895443704e-03
7.700000000000000178e+00 2.105141487985853158e-03
7.750000000000000000e+00 2.091253881918180794e-03
7.800000000000000711e+00 2.077548819377400807e-03
7.850000000000000533e+00 2.064022711964405392e-03
7.900000000000000355e+00 2.050672065026779879e-03
7.950000000000000178e+00 2.037493474613016886e-03
8.000000000000000000e+00 2.024483624544643531e-03
8.050000000000000711e+00 2.011639283600939569e-03
8.099999999999999645e+00 1.998957302811277779e-03
8.150000000000000355e+00 1.986434612850302220e-03
8.200000000000001066e+00 1.974068221531448831e-03
8.250000000000000000e+00 1.961855211394486747e-03
8.300000000000000711e+00 1.949792737383027573e-03
8.349999999999999645e+00 1.937878024608094942e-03
8.400000000000000355e+00 1.926108366194081512e-03
8.450000000000001066e+00 1.914481121203568011e-03
8.500000000000000000e+00 1.902993712637676476e-03
8.550000000000000711e+00 1.891643625508753878e-03
8.599999999999999645e+00 1.880428404982371383e-03
8.650000000000000355e+00 1.869345654585756814e-03
8.700000000000001066e+00 1.858393034479890798e-03
8.750000000000000000e+00 1.847568259792661295e-03
8.800000000000000711e+00 1.836869099010569146e-03
8.849999999999999645e+00 1.826293372426610918e-03
8.900000000000000355e+00 1.815838950642052014e-03
8.950000000000001066e+00 1.805503753119933139e-03
9.000000000000000000e+00 1.795285746788232795e-03
9.050000000000000711e+00 1.785182944690715369e-03
9.099999999999999645e+00 1.775193404683572240e-03
9.150000000000000355e+00 1.765315228176063921e-03
9.200000000000001066e+00 1.755546558913421160e-03
9.250000000000000000e+00 1.745885581800386268e-03
9.300000000000000711e+00 1.736330521763801123e-03
9.349999999999999645e+00 1.726879642652750201e-03
9.400000000000000355e+00 1.717531246174810360e-03
9.450000000000001066e+00 1.708283670867046921e-03
9.500000000000000000e+00 1.699135291100421384e-03
9.550000000000000711e+00 1.690084516116373715e-03
9.600000000000001421e+00 1.681129789094346029e-03
9.650000000000000355e+00 1.672269586249125299e-03
9.700000000000001066e+00 1.663502415956867554e-03
9.750000000000000000e+00 1.654826817908773779e-03
9.800000000000000711e+00 1.646241362291384286e-03
9.850000000000001421e+00 1.637744648992522705e-03
9.900000000000000355e+00 1.629335306831964335e-03
9.950000000000001066e+00 1.621011992815929838e-03
1.000000000000000000e+01 1.612773391414548847e-03
1.005000000000000071e+01 1.604618213861470997e-03
1.010000000000000142e+01 1.596545197474841596e-03
1.015000000000000036e+01 1.588553104998873672e-03
1.020000000000000107e+01 1.580640723965304716e-03
1.025000000000000000e+01 1.572806866074031012e-03
1.030000000000000071e+01 1.565050366592249734e-03
1.035000000000000142e+01 1.557370083771481917e-03
1.040000000000000036e+01 1.549764898281831864e-03
1.045000000000000107e+01 1.542233712662916803e-03
1.050000000000000000e+01 1.534775450790881778e-03
1.055000000000000071e+01 1.527389057360952884e-03
1.060000000000000142e+01 1.520073497385010389e-03
1.065000000000000036e+01 1.512827755703666753e-03
1.070000000000000107e+01 1.505650836512364673e-03
1.075000000000000000e+01 1.498541762901036333e-03
1.080000000000000071e+01 1.491499576406856353e-03
1.085000000000000142e+01 1.484523336579667311e-03
1.090000000000000036e+01 1.477612120559662623e-03
1.095000000000000107e+01 1.470765022666913448e-03
1.100000000000000000e+01 1.463981154002362778e-03
1.105000000000000071e+01 1.457259642059912210e-03
1.110000000000000142e+01 1.450599630349241453e-03
1.115000000000000036e+01 1.444000278029018182e-03
1.120000000000000107e+01 1.437460759550158442e-03
1.125000000000000000e+01 1.430980264308830130e-03
1.130000000000000071e+01 1.424557996308874934e-03
1.135000000000000142e+01 1.418193173833364904e-03
1.140000000000000036e+01 1.411885029124997429e-03
1.145000000000000107e+01 1.405632808075055412e-03
1.150000000000000000e+01 1.399435769920666373e-03
1.155000000000000071e+01 1.393293186950100675e-03
1.160000000000000142e+01 1.387204344215862148e-03
1.165000000000000036e+01 1.381168539255334072e-03
1.170000000000000107e+01 1.375185081818739189e-03
1.175000000000000000e+01 1.369253293604205148e-03
1.180000000000000071e+01 1.363372507999710071e-03
1.185000000000000142e+01 1.357542069831700312e-03
1.190000000000000036e+01 1.351761335120187178e-03
1.195000000000000107e+01 1.346029670840115334e-03
1.200000000000000000e+01 1.340346454688835049e-03
1.205000000000000071e+01 1.334711074859472931e-03
1.210000000000000142e+01 1.329122929820051539e-03
1.215000000000000036e+01 1.323581428098168132e-03
1.220000000000000107e+01 1.318085988071081641e-03
1.225000000000000000e+01 1.312636037761044996e-03
1.230000000000000071e+01 1.307231014635732791e-03
1.235000000000000142e+01 1.301870365413612240e-03
1.240000000000000036e+01 1.296553545874123883e-03
1.245000000000000107e+01 1.291280020672519371e-03
1.250000000000000000e+01 1.286049263159240105e-03
1.255000000000000071e+01 1.280860755203692969e-03
1.260000000000000142e+01 1.275713987022309521e-03
1.265000000000000036e+01 1.270608457010756823e-03
1.270000000000000107e+01 1.265543671580193199e-03
1.275000000000000000e+01 1.260519144997446868e-03
1.280000000000000071e+01 1.255534399229021143e-03
1.285000000000000142e+01 1.250588963788795476e-03
1.290000000000000036e+01 1.245682375589350546e-03
1.295000000000000107e+01 1.240814178796793800e-03
1.300000000000000000e+01 1.235983924689000027e-03
1.305000000000000071e+01 1.231191171517169794e-03
1.310000000000000142e+01 1.226435484370615994e-03
1.315000000000000036e+01 1.221716435044699128e-03
1.320000000000000107e+01 1.217033601911805731e-03
1.325000000000000000e+01 1.212386569795312037e-03
1.330000000000000071e+01 1.207774929846432924e-03
1.335000000000000142e+01 1.203198279423895204e-03
1.340000000000000036e+01 1.198656221976347877e-03
1.345000000000000107e+01 1.194148366927440166e-03
1.350000000000000000e+01 1.189674329563501212e-03
1.355000000000000071e+01 1.185233730923749857e-03
1.360000000000000142e+01 1.180826197692961882e-03
1.365000000000000036e+01 1.176451362096547640e-03
1.370000000000000107e+01 1.172108861797953143e-03
1.375000000000000000e+01 1.167798339798346852e-03
1.380000000000000071e+01 1.163519444338519983e-03
1.385000000000000142e+01 1.159271828802949794e-03
1.390000000000000036e+01 1.155055151625963838e-03
1.395000000000000107e+01 1.150869076199955744e-03
1.400000000000000000e+01 1.146713270785603735e-03
1.405000000000000071e+01 1.142587408424034206e-03
1.410000000000000142e+01 1.138491166850883959e-03
1.415000000000000036e+01 1.134424228412214252e-03
1.420000000000000107e+01 1.130386279982231127e-03
1.425000000000000000e+01 1.126377012882760634e-03
1.430000000000000071e+01 1.122396122804445980e-03
1.435000000000000142e+01 1.118443309729612615e-03
1.440000000000000036e+01 1.114518277856768082e-03
1.445000000000000107e+01 1.110620735526691516e-03
1.450000000000000000e+01 1.106750395150077467e-03
1.455000000000000071e+01 1.102906973136690656e-03
1.460000000000000142e+01 1.099090189826004357e-03
1.465000000000000036e+01 1.095299769419275570e-03
1.470000000000000107e+01 1.091535439913026177e-03
1.475000000000000000e+01 1.087796933033901257e-03
1.480000000000000071e+01 1.084083984174864877e-03
1.485000000000000142e+01 1.080396332332700816e-03
1.490000000000000036e+01 1.076733720046796784e-03
1.495000000000000107e+01 1.073095893339166352e-03
1.500000000000000000e+01 1.069482601655694955e-03
1.505000000000000071e+01 1.065893597808566370e-03
1.510000000000000142e+01 1.062328637919858400e-03
1.515000000000000036e+01 1.058787481366260707e-03
1.520000000000000107e+01 1.055269890724904163e-03
1.525000000000000000e+01 1.051775631720275935e-03
1.530000000000000071e+01 1.048304473172174522e-03
1.535000000000000142e+01 1.044856186944714089e-03
1.540000000000000036e+01 1.041430547896318899e-03
1.545000000000000107e+01 1.038027333830717153e-03
1.550000000000000000e+01 1.034646325448882213e-03
1.555000000000000071e+01 1.031287306301921199e-03
1.560000000000000142e+01 1.027950062744882338e-03
1.565000000000000036e+01 1.024634383891450057e-03
1.570000000000000107e+01 1.021340061569531296e-03
1.575000000000000000e+01 1.018066890277686187e-03
1.580000000000000071e+01 1.014814667142402036e-03
1.585000000000000142e+01 1.011583191876186741e-03
1.590000000000000036e+01 1.008372266736460177e-03
1.595000000000000107e+01 1.005181696485230990e-03
1.600000000000000000e+01 1.002011288349537307e-03
1.605000000000000071e+01 9.988608519826379373e-04
1.610000000000000142e+01 9.957301994259319406e-04
1.615000000000000213e+01 9.926191450715976701e-04
1.619999999999999929e+01 9.895275056259319937e-04
1.625000000000000000e+01 9.864551000733714787e-04
1.630000000000000071e+01 9.834017496411870830e-04
1.635000000000000142e+01 9.803672777648315354e-04
1.640000000000000213e+01 9.773515100539313834e-04
1.644999999999999929e+01 9.743542742589019140e-04
1.650000000000000000e+01 9.713754002381820227e-04
1.655000000000000071e+01 9.684147199260630069e-04
1.660000000000000142e+01 9.654720673011126962e-04
1.665000000000000213e+01 9.625472783551701971e-04
1.669999999999999929e+01 9.596401910629040986e-04
1.675000000000000000e+01 9.567506453519232946e-04
1.680000000000000071e+01 9.538784830734311007e-04
1.685000000000000142e+01 9.510235479733980535e-04
1.690000000000000213e+01 9.481856856642627155e-04
1.694999999999999929e+01 9.453647435971333822e-04
1.700000000000000000e+01 9.425605710344855948e-04
1.705000000000000071e+01 9.397730190233443987e-04
1.710000000000000142e+01 9.370019403689500495e-04
1.715000000000000213e+01 9.342471896088758295e-04
1.719999999999999929e+01 9.315086229876148914e-04
1.725000000000000000e+01 9.287860984316076126e-04
1.730000000000000071e+01 9.260794755247049072e-04
1.735000000000000142e+01 9.233886154840650028e-04
1.740000000000000213e+01 9.207133811364666583e-04
1.744999999999999929e+01 9.180536368950379571e-04
1.750000000000000000e+01 9.154092487363800750e-04
1.755000000000000071e+01 9.127800841780948048e-04
1.760000000000000142e+01 9.101660122566951295e-04
1.765000000000000213e+01 9.075669035058958091e-04
1.769999999999999929e+01 9.049826299352721612e-04
1.775000000000000000e+01 9.024130650092903987e-04
1.780000000000000071e+01 8.998580836266869718e-04
1.785000000000000142e+01 8.973175621002036370e-04
1.790000000000000213e+01 8.947913781366642659e-04
1.794999999999999929e+01 8.922794108173839629e-04
1.800000000000000000e+01 8.897815405789132005e-04
1.805000000000000071e+01 8.872976491941029879e-04
1.810000000000000142e+01 8.848276197534859751e-04
1.815000000000000213e+01 8.823713366469686150e-04
1.819999999999999929e+01 8.799286855458301549e-04
1.825000000000000000e+01 8.774995533850154465e-04
1.830000000000000071e+01 8.750838283457275379e-04
1.835000000000000142e+01 8.726813998383000986e-04
1.840000000000000213e+01 8.702921584853584580e-04
1.844999999999999929e+01 8.679159961052523463e-04
1.850000000000000000e+01 8.655528056957616364e-04
1.855000000000000071e+01 8.632024814180664155e-04
1.860000000000000142e+01 8.608649185809817087e-04
1.865000000000000213e+01 8.585400136254440649e-04
1.869999999999999929e+01 8.562276641092504345e-04
1.875000000000000000e+01 8.539277686920444636e-04
1.880000000000000071e+01 8.516402271205440223e-04
1.885000000000000142e+01 8.493649402140034631e-04
1.890000000000000213e+01 8.471018098499149456e-04
1.894999999999999929e+01 8.448507389499288790e-04
1.900000000000000000e+01 8.426116314660088771e-04
1.905000000000000071e+01 8.403843923667979159e-04
1.910000000000000142e+01 8.381689276242042588e-04
1.915000000000000213e+01 8.359651442002012959e-04
1.920000000000000284e+01 8.337729500338311034e-04
1.925000000000000000e+01 8.315922540284148698e-04
1.930000000000000071e+01 8.294229660389648750e-04
1.935000000000000142e+01 8.272649968597877226e-04
1.940000000000000213e+01 8.251182582122892342e-04
1.945000000000000284e+01 8.229826627329620307e-04
1.950000000000000000e+01 8.208581239615621999e-04
1.955000000000000071e+01 8.187445563294698438e-04
1.960000000000000142e+01 8.166418751482263511e-04
1.965000000000000213e+01 8.145499965982516471e-04
1.970000000000000284e+01 8.124688377177310137e-04
1.975000000000000000e+01 8.103983163916749465e-04
1.980000000000000071e+01 8.083383513411442458e-04
1.985000000000000142e+01 8.062888621126418571e-04
1.990000000000000213e+01 8.042497690676613789e-04
